id,id_samochodu,id_klienta,id_pracownika,data_zaksięgowania,cena
1,1,1,3,2014-01-02,36800.0
2,2,2,3,2014-01-03,108800.0
3,3,3,3,2014-01-04,47200.0
4,4,4,2,2014-01-04,27800.0
5,5,5,2,2014-01-04,46400.0
6,6,6,2,2014-01-07,124200.0
7,7,7,3,2014-01-09,29900.0
8,8,8,3,2014-01-10,56700.0
9,9,9,2,2014-01-11,33900.0
10,10,10,3,2014-01-12,44700.0
11,11,11,3,2014-01-15,56900.0
12,12,12,3,2014-01-15,51200.0
13,13,13,2,2014-01-15,49300.0
14,14,14,2,2014-01-17,40100.0
15,15,15,2,2014-01-17,15200.0
16,16,16,2,2014-01-18,28300.0
17,17,17,3,2014-01-18,37000.0
18,18,18,2,2014-01-21,58100.0
19,19,19,3,2014-01-21,45600.0
20,20,20,3,2014-01-23,43400.0
21,22,41,2,2014-02-05,69500.0
22,23,43,3,2014-02-06,28500.0
23,24,45,2,2014-02-07,6100.0
24,25,46,3,2014-02-07,36900.0
25,26,49,3,2014-02-09,59900.0
26,27,50,2,2014-02-11,39600.0
27,28,52,2,2014-02-12,60600.0
28,29,54,3,2014-02-13,23700.0
29,31,57,3,2014-02-14,24900.0
30,32,60,3,2014-02-15,35200.0
31,33,62,3,2014-02-15,30200.0
32,34,64,3,2014-02-16,23800.0
33,38,69,2,2014-02-19,52300.0
34,39,70,2,2014-02-19,88600.0
35,40,71,3,2014-02-20,63100.0
36,41,72,2,2014-02-21,21800.0
37,42,75,2,2014-02-22,24200.0
38,45,80,3,2014-03-08,159300.0
39,48,83,2,2014-03-11,39200.0
40,52,89,2,2014-03-15,103400.0
41,53,90,3,2014-03-19,27600.0
42,54,93,3,2014-03-20,32000.0
43,55,94,2,2014-03-21,72600.0
44,56,96,3,2014-03-21,42600.0
45,59,101,3,2014-03-25,34600.0
46,61,103,2,2014-03-27,78700.0
47,62,105,2,2014-03-29,39700.0
48,65,110,3,2014-04-03,89000.0
49,67,112,2,2014-04-05,9300.0
50,69,115,2,2014-04-08,34200.0
51,70,117,3,2014-04-09,20200.0
52,73,122,2,2014-04-11,68200.0
53,74,123,2,2014-04-11,47200.0
54,75,124,3,2014-04-17,51100.0
55,77,128,2,2014-04-23,99900.0
56,79,131,2,2014-04-26,27500.0
57,80,133,2,2014-04-27,51300.0
58,81,135,3,2014-04-29,52100.0
59,82,137,2,2014-05-02,44900.0
60,83,138,2,2014-05-04,55600.0
61,84,140,3,2014-05-06,40600.0
62,85,142,2,2014-05-07,26000.0
63,87,146,2,2014-05-10,53500.0
64,89,149,2,2014-05-14,49100.0
65,90,150,2,2014-05-15,62000.0
66,92,152,2,2014-05-17,75500.0
67,93,154,3,2014-05-17,62300.0
68,95,156,3,2014-05-18,34000.0
69,96,159,3,2014-05-20,31100.0
70,97,160,3,2014-05-21,28800.0
71,99,164,3,2014-05-22,58800.0
72,100,165,3,2014-05-23,75700.0
73,102,167,2,2014-05-28,9500.0
74,105,171,2,2014-05-31,24500.0
75,107,175,3,2014-06-01,39200.0
76,108,176,2,2014-06-03,41200.0
77,112,181,2,2014-06-08,43600.0
78,113,182,3,2014-06-10,29300.0
79,114,184,3,2014-06-10,81700.0
80,115,185,3,2014-06-11,13600.0
81,116,186,2,2014-06-13,49300.0
82,118,190,2,2014-06-15,21900.0
83,121,195,2,2014-06-18,66100.0
84,122,197,3,2014-06-22,38600.0
85,123,199,2,2014-06-25,47200.0
86,125,202,2,2014-06-28,32000.0
87,126,203,3,2014-06-28,29800.0
88,127,206,2,2014-07-02,24900.0
89,128,207,2,2014-07-02,61500.0
90,129,208,2,2014-07-03,70000.0
91,130,209,3,2014-07-03,74700.0
92,131,212,3,2014-07-06,16500.0
93,132,215,2,2014-07-08,31800.0
94,133,216,3,2014-07-08,64700.0
95,121,196,3,2014-07-15,65700.0
96,136,223,2,2014-07-16,47300.0
97,137,224,2,2014-07-17,22500.0
98,138,225,2,2014-07-17,34000.0
99,139,228,2,2014-07-18,84400.0
100,140,230,2,2014-07-20,18200.0
101,141,231,2,2014-07-20,20800.0
102,142,233,3,2014-07-22,24600.0
103,143,236,2,2014-07-23,47800.0
104,144,237,3,2014-07-23,45500.0
105,146,241,2,2014-07-24,21000.0
106,148,244,3,2014-07-25,139000.0
107,149,246,3,2014-07-26,28400.0
108,150,247,3,2014-07-26,37200.0
109,151,250,3,2014-07-27,35500.0
110,153,253,2,2014-07-29,27400.0
111,154,254,3,2014-07-29,31500.0
112,155,255,2,2014-07-30,63400.0
113,156,257,2,2014-08-01,52600.0
114,157,258,2,2014-08-01,53000.0
115,160,264,2,2014-08-06,35800.0
116,161,266,3,2014-08-07,45000.0
117,162,268,2,2014-08-09,33600.0
118,163,269,2,2014-08-10,92000.0
119,164,271,2,2014-08-14,22700.0
120,165,272,2,2014-08-17,53800.0
121,166,274,2,2014-08-17,72000.0
122,168,278,2,2014-08-20,149900.0
123,169,279,2,2014-08-21,112100.0
124,170,280,3,2014-08-21,22000.0
125,171,283,3,2014-08-23,12700.0
126,173,286,2,2014-08-26,51200.0
127,174,287,2,2014-08-27,39000.0
128,175,288,3,2014-08-28,27400.0
129,176,291,3,2014-08-29,15700.0
130,177,293,2,2014-08-30,17400.0
131,178,294,3,2014-08-30,46300.0
132,179,295,2,2014-09-03,27000.0
133,180,296,2,2014-09-03,22600.0
134,181,297,2,2014-09-04,38800.0
135,183,301,2,2014-09-09,63600.0
136,184,302,2,2014-09-09,46000.0
137,185,303,2,2014-09-09,36100.0
138,186,306,3,2014-09-10,77600.0
139,187,308,3,2014-09-11,44200.0
140,188,309,3,2014-09-12,33000.0
141,189,313,3,2014-09-23,45600.0
142,190,315,2,2014-09-24,31900.0
143,191,317,2,2014-09-25,6200.0
144,192,318,3,2014-09-25,24100.0
145,193,319,3,2014-09-25,71000.0
146,194,321,3,2014-09-25,52200.0
147,195,322,3,2014-09-25,28400.0
148,196,324,2,2014-09-26,97500.0
149,197,329,3,2014-10-02,48100.0
150,198,330,2,2014-10-02,26400.0
151,201,335,3,2014-10-07,58700.0
152,202,336,3,2014-10-07,71100.0
153,203,339,3,2014-10-10,26800.0
154,205,342,2,2014-10-12,45800.0
155,206,343,3,2014-10-12,15200.0
156,207,344,3,2014-10-16,38800.0
157,209,346,3,2014-10-17,54600.0
158,211,349,2,2014-10-22,11200.0
159,212,352,2,2014-10-25,34100.0
160,213,354,3,2014-10-26,55500.0
161,214,356,2,2014-10-29,6400.0
162,215,358,3,2014-10-30,31600.0
163,216,360,2,2014-10-30,107500.0
164,217,363,3,2014-11-02,32700.0
165,218,365,2,2014-11-02,27100.0
166,219,367,3,2014-11-05,22300.0
167,220,368,3,2014-11-05,23800.0
168,97,161,3,2014-11-06,23700.0
169,221,371,2,2014-11-09,31500.0
170,224,376,3,2014-11-13,37700.0
171,226,378,2,2014-11-15,24600.0
172,227,241,3,2014-11-20,52700.0
173,228,380,2,2014-11-23,39800.0
174,229,381,3,2014-11-25,25400.0
175,230,385,2,2014-11-26,18300.0
176,231,386,3,2014-11-27,40000.0
177,232,387,2,2014-11-27,29500.0
178,234,389,3,2014-11-28,38400.0
179,238,394,2,2014-12-03,65900.0
180,239,397,2,2014-12-07,35100.0
181,240,398,2,2014-12-09,53000.0
182,241,401,3,2014-12-10,18400.0
183,242,402,2,2014-12-11,76900.0
184,243,404,2,2014-12-14,21500.0
185,244,405,2,2014-12-14,30900.0
186,245,406,2,2014-12-14,17400.0
187,246,411,3,2014-12-19,44500.0
188,248,413,2,2014-12-24,26200.0
189,249,415,3,2014-12-26,28100.0
190,250,416,3,2014-12-26,59400.0
191,251,418,2,2014-12-28,25100.0
192,255,15,3,2015-01-02,16500.0
193,256,283,3,2015-01-03,65900.0
194,257,423,3,2015-01-07,31900.0
195,253,421,2,2015-01-11,91200.0
196,258,311,3,2015-01-13,47800.0
197,259,428,3,2015-01-13,20900.0
198,262,433,3,2015-01-15,44000.0
199,266,437,2,2015-01-18,20700.0
200,267,438,2,2015-01-20,34800.0
201,268,282,2,2015-01-24,38300.0
202,269,441,2,2015-01-25,27100.0
203,270,442,3,2015-01-27,23400.0
204,271,443,2,2015-01-28,21500.0
205,272,446,3,2015-01-29,29900.0
206,273,449,2,2015-02-01,42800.0
207,274,450,3,2015-02-01,37500.0
208,275,451,3,2015-02-03,50600.0
209,276,454,3,2015-02-06,48200.0
210,277,41,3,2015-02-06,25300.0
211,279,457,2,2015-02-10,26400.0
212,282,462,2,2015-02-15,48600.0
213,283,465,3,2015-02-17,35600.0
214,288,470,3,2015-02-21,21700.0
215,289,471,2,2015-02-22,21100.0
216,290,209,3,2015-02-22,24700.0
217,291,472,2,2015-02-26,133300.0
218,292,473,2,2015-02-27,38100.0
219,293,474,2,2015-02-27,34400.0
220,294,237,3,2015-03-07,71500.0
221,296,481,3,2015-03-07,23800.0
222,297,483,3,2015-03-10,55800.0
223,298,484,3,2015-03-11,74700.0
224,299,485,2,2015-03-12,19200.0
225,177,50,2,2015-03-13,16400.0
226,27,51,2,2015-03-18,36300.0
227,300,271,2,2015-03-19,20000.0
228,301,490,2,2015-03-19,32500.0
229,224,384,3,2015-03-25,38700.0
230,302,495,3,2015-03-26,32400.0
231,303,496,3,2015-03-26,35900.0
232,304,497,2,2015-03-26,8600.0
233,305,498,2,2015-03-26,21900.0
234,307,503,2,2015-04-02,20600.0
235,308,283,2,2015-04-03,9800.0
236,311,505,2,2015-04-03,19000.0
237,312,506,3,2015-04-04,44900.0
238,314,512,3,2015-04-07,42500.0
239,317,515,3,2015-04-10,66700.0
240,318,516,2,2015-04-11,43300.0
241,320,520,2,2015-04-14,36700.0
242,321,521,2,2015-04-15,27600.0
243,322,522,2,2015-04-16,20800.0
244,324,525,3,2015-04-16,33000.0
245,147,243,2,2015-04-16,61600.0
246,325,526,3,2015-04-17,42400.0
247,326,529,3,2015-04-21,47800.0
248,327,531,3,2015-04-24,62800.0
249,328,534,2,2015-04-28,74300.0
250,330,537,3,2015-04-30,22600.0
251,331,539,2,2015-05-04,48800.0
252,334,544,3,2015-05-08,36500.0
253,21,32,3,2015-05-09,31200.0
254,335,545,3,2015-05-09,18800.0
255,336,546,2,2015-05-09,22000.0
256,337,548,2,2015-05-14,35200.0
257,338,549,3,2015-05-14,37600.0
258,340,551,2,2015-05-14,64600.0
259,342,556,2,2015-05-17,67500.0
260,343,558,3,2015-05-20,74500.0
261,344,559,3,2015-05-21,56100.0
262,345,560,3,2015-05-21,46600.0
263,346,564,2,2015-05-27,45200.0
264,347,566,2,2015-05-27,47100.0
265,348,568,2,2015-05-28,42100.0
266,349,128,2,2015-05-28,26600.0
267,350,570,3,2015-05-30,29300.0
268,351,571,2,2015-05-31,23300.0
269,352,142,2,2015-06-05,27300.0
270,353,451,2,2015-06-06,35200.0
271,354,575,2,2015-06-09,24500.0
272,355,576,3,2015-06-11,44900.0
273,356,578,2,2015-06-12,30300.0
274,359,584,2,2015-06-18,21200.0
275,360,585,2,2015-06-19,42500.0
276,361,558,2,2015-06-19,6500.0
277,362,586,2,2015-06-19,15200.0
278,363,589,2,2015-06-23,50000.0
279,365,591,2,2015-06-26,15900.0
280,366,594,2,2015-06-28,34200.0
281,94,155,2,2015-07-02,43600.0
282,369,597,3,2015-07-04,66700.0
283,372,601,2,2015-07-10,34700.0
284,373,602,3,2015-07-10,29900.0
285,374,569,3,2015-07-12,17800.0
286,376,606,2,2015-07-14,39800.0
287,377,607,3,2015-07-14,25000.0
288,379,612,2,2015-07-17,24000.0
289,380,614,3,2015-07-21,39500.0
290,381,615,2,2015-07-21,18400.0
291,322,532,3,2015-07-23,21300.0
292,385,620,2,2015-07-25,26300.0
293,386,622,3,2015-07-26,36400.0
294,387,308,3,2015-07-26,51600.0
295,388,624,3,2015-07-29,38400.0
296,390,281,2,2015-07-31,86800.0
297,391,628,2,2015-07-31,36400.0
298,392,629,2,2015-08-01,20300.0
299,393,630,3,2015-08-01,26100.0
300,394,631,2,2015-08-02,38200.0
301,395,628,3,2015-08-04,19700.0
302,396,634,3,2015-08-05,55200.0
303,399,641,2,2015-08-14,24200.0
304,401,197,3,2015-08-18,69600.0
305,404,647,3,2015-08-26,35900.0
306,34,65,2,2015-08-27,20300.0
307,406,649,2,2015-08-27,85100.0
308,408,653,3,2015-08-30,21700.0
309,409,654,2,2015-09-01,16100.0
310,410,655,3,2015-09-01,71300.0
311,411,658,3,2015-09-02,46200.0
312,412,65,2,2015-09-03,46400.0
313,413,660,3,2015-09-05,38400.0
314,414,662,2,2015-09-06,43000.0
315,416,666,2,2015-09-09,22300.0
316,417,668,3,2015-09-09,64500.0
317,39,73,2,2015-09-12,75200.0
318,419,672,2,2015-09-16,46700.0
319,420,443,3,2015-09-18,79200.0
320,421,675,2,2015-09-20,60700.0
321,425,678,3,2015-09-23,58400.0
322,426,679,3,2015-09-24,28400.0
323,427,681,2,2015-09-24,17100.0
324,428,589,2,2015-09-25,22900.0
325,429,683,3,2015-09-26,41700.0
326,430,684,2,2015-09-27,30700.0
327,431,688,2,2015-09-30,61900.0
328,432,689,3,2015-09-30,51100.0
329,433,691,2,2015-10-04,12800.0
330,405,648,3,2015-10-06,45200.0
331,437,696,3,2015-10-07,35400.0
332,440,700,3,2015-10-10,42400.0
333,441,702,2,2015-10-14,138100.0
334,443,707,3,2015-10-16,52100.0
335,444,574,3,2015-10-17,49300.0
336,445,708,2,2015-10-17,26400.0
337,446,709,2,2015-10-17,19900.0
338,449,713,2,2015-10-22,15600.0
339,450,144,2,2015-10-23,8300.0
340,451,714,2,2015-10-24,39100.0
341,453,717,3,2015-10-25,41700.0
342,454,718,3,2015-10-25,57800.0
343,455,721,2,2015-10-30,72500.0
344,456,722,3,2015-10-31,24100.0
345,457,723,2,2015-10-31,65600.0
346,459,23,2,2015-11-05,58700.0
347,461,727,3,2015-11-05,21600.0
348,462,729,2,2015-11-06,23000.0
349,467,737,3,2015-11-12,40200.0
350,201,355,3,2015-11-15,48700.0
351,470,741,2,2015-11-17,47000.0
352,474,747,2,2015-11-20,34100.0
353,475,749,3,2015-11-21,29700.0
354,270,453,2,2015-11-25,31100.0
355,477,750,2,2015-11-26,53700.0
356,478,751,3,2015-11-27,15400.0
357,479,752,3,2015-11-28,20100.0
358,480,753,2,2015-11-29,24200.0
359,3,31,2,2015-12-03,59600.0
360,482,760,2,2015-12-04,39000.0
361,486,764,3,2015-12-08,6600.0
362,488,766,2,2015-12-09,49200.0
363,489,767,2,2015-12-10,49900.0
364,323,523,2,2015-12-17,28100.0
365,491,772,2,2015-12-24,48800.0
366,492,773,2,2015-12-27,41900.0
367,493,775,2,2016-01-03,21400.0
368,92,157,2,2016-01-07,72000.0
369,495,779,2,2016-01-07,30300.0
370,496,361,3,2016-01-07,20300.0
371,498,303,2,2016-01-10,16400.0
372,499,782,2,2016-01-13,29700.0
373,500,785,2,2016-01-16,30800.0
374,24,48,2,2016-01-20,5700.0
375,501,788,2,2016-01-21,35700.0
376,502,789,2,2016-01-22,21900.0
377,503,791,3,2016-01-22,32200.0
378,504,792,2,2016-01-22,42700.0
379,505,793,2,2016-01-23,34400.0
380,506,795,3,2016-01-24,43200.0
381,509,798,3,2016-01-28,32000.0
382,510,800,3,2016-01-31,20800.0
383,447,295,2,2016-02-05,22100.0
384,511,802,3,2016-02-05,36500.0
385,512,588,3,2016-02-06,31000.0
386,513,106,2,2016-02-07,44400.0
387,514,807,3,2016-02-10,36200.0
388,515,809,3,2016-02-16,67600.0
389,516,359,3,2016-02-17,61600.0
390,517,523,2,2016-02-19,208900.0
391,518,813,2,2016-02-20,30000.0
392,520,172,3,2016-02-23,36800.0
393,521,677,3,2016-02-24,33400.0
394,523,816,2,2016-02-25,15700.0
395,524,819,2,2016-02-26,8100.0
396,525,820,3,2016-02-28,39200.0
397,526,822,2,2016-03-01,40300.0
398,527,824,2,2016-03-05,23400.0
399,528,825,3,2016-03-05,15900.0
400,529,829,3,2016-03-10,39300.0
401,533,835,3,2016-03-15,33800.0
402,141,234,3,2016-03-15,22200.0
403,534,836,3,2016-03-16,41700.0
404,192,328,3,2016-03-16,22100.0
405,535,838,2,2016-03-16,99600.0
406,536,841,3,2016-03-17,30700.0
407,537,842,3,2016-03-18,82300.0
408,538,150,2,2016-03-19,29000.0
409,540,845,3,2016-03-20,32900.0
410,541,847,2,2016-03-24,46100.0
411,543,849,3,2016-03-24,49700.0
412,544,852,3,2016-03-26,40400.0
413,469,740,3,2016-03-27,47100.0
414,545,853,2,2016-03-27,50900.0
415,546,855,2,2016-03-30,7200.0
416,547,856,3,2016-03-31,68800.0
417,548,425,3,2016-03-31,38000.0
418,549,858,3,2016-04-02,18100.0
419,550,860,3,2016-04-02,32400.0
420,551,863,2,2016-04-03,24500.0
421,552,865,3,2016-04-07,40400.0
422,553,866,2,2016-04-08,29600.0
423,554,868,2,2016-04-12,34700.0
424,555,869,3,2016-04-12,15400.0
425,556,872,2,2016-04-14,52900.0
426,159,262,3,2016-04-17,13100.0
427,560,721,2,2016-04-22,44500.0
428,561,881,2,2016-04-23,53100.0
429,562,882,3,2016-04-24,121800.0
430,563,884,3,2016-04-28,145300.0
431,564,885,3,2016-04-30,53600.0
432,565,888,2,2016-05-02,30300.0
433,566,889,2,2016-05-04,91800.0
434,569,891,2,2016-05-06,21000.0
435,570,893,2,2016-05-06,28900.0
436,394,636,2,2016-05-07,45000.0
437,574,563,3,2016-05-12,38400.0
438,576,614,2,2016-05-12,84100.0
439,578,902,2,2016-05-13,41400.0
440,582,474,2,2016-05-15,38800.0
441,583,907,2,2016-05-17,38800.0
442,586,910,2,2016-05-18,49400.0
443,587,911,3,2016-05-19,52000.0
444,588,912,3,2016-05-20,26500.0
445,589,913,3,2016-05-20,66800.0
446,590,914,2,2016-05-20,49300.0
447,591,916,3,2016-05-21,26100.0
448,410,657,3,2016-05-22,71700.0
449,592,918,3,2016-05-25,41200.0
450,593,922,3,2016-05-27,32100.0
451,594,923,3,2016-05-28,30100.0
452,595,924,2,2016-05-28,42200.0
453,596,925,3,2016-05-28,44900.0
454,599,930,3,2016-06-08,24400.0
455,601,933,2,2016-06-09,12100.0
456,602,91,3,2016-06-12,47900.0
457,3,762,2,2016-06-12,44100.0
458,604,16,3,2016-06-14,43200.0
459,606,552,2,2016-06-15,49200.0
460,610,939,2,2016-06-17,51300.0
461,611,941,3,2016-06-19,25600.0
462,612,57,3,2016-06-22,15600.0
463,613,942,3,2016-06-22,41600.0
464,614,943,3,2016-06-22,46400.0
465,615,945,2,2016-06-24,52700.0
466,618,949,3,2016-06-29,19000.0
467,619,951,3,2016-06-30,35900.0
468,620,952,3,2016-06-30,72900.0
469,621,520,3,2016-07-02,37700.0
470,622,565,2,2016-07-06,23200.0
471,626,961,3,2016-07-09,93000.0
472,627,962,3,2016-07-10,60100.0
473,629,964,2,2016-07-12,18600.0
474,631,966,2,2016-07-13,38800.0
475,636,971,2,2016-07-16,211200.0
476,638,975,3,2016-07-22,40200.0
477,639,976,2,2016-07-23,224700.0
478,641,978,2,2016-07-24,28400.0
479,642,979,2,2016-07-24,34600.0
480,643,982,2,2016-07-27,72100.0
481,55,95,2,2016-07-29,77800.0
482,645,985,3,2016-07-29,49600.0
483,2,27,3,2016-07-30,64900.0
484,264,435,2,2016-07-31,23700.0
485,44,79,2,2016-07-31,15900.0
486,647,989,2,2016-08-03,32300.0
487,649,992,2,2016-08-07,44500.0
488,650,577,3,2016-08-07,26300.0
489,654,78,3,2016-08-11,81900.0
490,655,701,2,2016-08-12,20400.0
491,656,996,3,2016-08-14,25800.0
492,657,998,3,2016-08-14,28400.0
493,658,999,3,2016-08-14,28200.0
494,659,1001,3,2016-08-16,21700.0
495,660,543,3,2016-08-16,49900.0
496,661,1002,3,2016-08-16,26000.0
497,662,1005,2,2016-08-18,26000.0
498,663,1007,2,2016-08-18,26900.0
499,337,385,2,2016-08-20,31400.0
500,667,1013,2,2016-08-26,31700.0
501,668,1015,2,2016-08-27,13400.0
502,669,1016,3,2016-08-28,49600.0
503,670,285,2,2016-08-30,29400.0
504,671,1019,3,2016-09-01,55700.0
505,672,1020,3,2016-09-02,22000.0
506,674,1022,2,2016-09-03,41200.0
507,675,22,2,2016-09-04,39500.0
508,676,1024,3,2016-09-06,20500.0
509,677,1026,3,2016-09-07,24300.0
510,678,1028,3,2016-09-08,94700.0
511,317,524,2,2016-09-09,76900.0
512,679,1030,3,2016-09-10,31600.0
513,682,1034,3,2016-09-13,32300.0
514,683,1035,3,2016-09-14,79400.0
515,684,1038,3,2016-09-17,48000.0
516,685,1039,2,2016-09-18,35100.0
517,90,153,3,2016-09-23,38700.0
518,690,1047,2,2016-09-28,28700.0
519,692,153,3,2016-09-30,168300.0
520,695,1051,2,2016-10-04,8300.0
521,696,1053,2,2016-10-08,129300.0
522,697,1054,3,2016-10-11,25100.0
523,429,687,2,2016-10-13,33700.0
524,698,1055,2,2016-10-13,47600.0
525,699,1060,2,2016-10-15,39300.0
526,700,1061,3,2016-10-18,40200.0
527,701,519,3,2016-10-18,12500.0
528,475,758,3,2016-10-18,25600.0
529,482,688,2,2016-10-22,45100.0
530,704,1063,3,2016-10-25,46300.0
531,705,83,3,2016-10-25,29600.0
532,706,1064,3,2016-10-25,19500.0
533,709,1069,3,2016-11-01,43500.0
534,393,559,2,2016-11-02,22600.0
535,711,1073,3,2016-11-06,36000.0
536,712,1074,3,2016-11-08,22100.0
537,714,1076,2,2016-11-12,19900.0
538,715,1077,2,2016-11-13,42600.0
539,716,1078,3,2016-11-15,22300.0
540,719,1080,2,2016-11-17,27200.0
541,721,1081,2,2016-11-19,28900.0
542,722,1082,3,2016-11-20,16800.0
543,723,1084,3,2016-11-22,7400.0
544,724,1086,3,2016-11-25,42200.0
545,725,1089,3,2016-11-27,32100.0
546,726,1030,3,2016-11-29,37000.0
547,727,945,3,2016-12-01,21900.0
548,730,943,2,2016-12-03,21500.0
549,732,1094,2,2016-12-07,28200.0
550,733,220,2,2016-12-08,35700.0
551,172,285,3,2016-12-09,25200.0
552,735,1099,2,2016-12-11,30000.0
553,737,1101,2,2016-12-13,30900.0
554,738,1102,2,2016-12-13,27600.0
555,739,1103,2,2016-12-13,11300.0
556,158,261,2,2016-12-15,29700.0
557,741,1107,2,2016-12-16,66700.0
558,742,214,3,2016-12-17,212900.0
559,743,1109,2,2016-12-20,17000.0
560,744,1110,3,2016-12-21,54100.0
561,745,1111,3,2016-12-21,30700.0
562,746,1112,3,2016-12-23,51100.0
563,748,1119,2,2016-12-28,45100.0
564,455,666,3,2016-12-30,61100.0
565,749,1120,2,2016-12-30,32600.0
566,750,1121,2,2017-01-02,33500.0
567,751,816,2,2017-01-02,29100.0
568,753,1124,3,2017-01-05,27400.0
569,754,1127,2,2017-01-07,35400.0
570,755,1128,3,2017-01-07,37800.0
571,514,808,3,2017-01-11,36400.0
572,756,1132,3,2017-01-12,38600.0
573,757,1133,2,2017-01-12,33600.0
574,227,396,3,2017-01-12,44700.0
575,758,1134,3,2017-01-12,34800.0
576,759,1135,2,2017-01-13,21100.0
577,538,861,3,2017-01-14,25300.0
578,761,1140,3,2017-01-14,64000.0
579,768,1146,2,2017-01-21,23000.0
580,297,488,3,2017-01-21,42700.0
581,769,1147,3,2017-01-22,47300.0
582,770,1148,2,2017-01-24,21900.0
583,688,1044,3,2017-01-25,45200.0
584,772,1151,2,2017-01-29,34800.0
585,773,1152,3,2017-02-02,35600.0
586,774,1153,2,2017-02-02,26100.0
587,383,618,2,2017-02-07,16000.0
588,777,933,2,2017-02-10,6000.0
589,778,1160,3,2017-02-11,25600.0
590,779,13,3,2017-02-12,24200.0
591,780,387,3,2017-02-12,16200.0
592,781,1161,3,2017-02-14,123700.0
593,782,284,2,2017-02-16,38000.0
594,784,1165,2,2017-02-23,16000.0
595,172,1114,2,2017-02-23,16600.0
596,786,1168,3,2017-02-28,44700.0
597,787,1169,2,2017-02-28,24100.0
598,788,1170,3,2017-03-01,29500.0
599,791,1176,3,2017-03-04,70000.0
600,437,703,3,2017-03-05,31000.0
601,792,1179,2,2017-03-09,25900.0
602,795,808,2,2017-03-11,65500.0
603,796,876,3,2017-03-12,33900.0
604,50,86,2,2017-03-12,51100.0
605,798,1184,3,2017-03-12,46400.0
606,799,1186,2,2017-03-14,156800.0
607,800,1187,2,2017-03-15,65600.0
608,801,1188,3,2017-03-15,79700.0
609,478,757,2,2017-03-16,14900.0
